,timestep,Clipper-Europa distance,velocity,acceleration
0,781804545.4607,678274823,30.178674602388625,3.544443859955638e-05
1,781804557.4607,678274443,30.178800481071672,3.544570477742864e-05
2,781804569.4607,678274064,30.178926095674587,3.544699011353055e-05
3,781804581.4607,678273684,30.179051446201314,3.544829460577813e-05
4,781804593.4607,678273305,30.179176532655816,3.5449618252056645e-05
5,781804605.4607,678272926,30.179301355042043,3.545096105022058e-05
6,781804617.4607,678272546,30.17942591336395,3.545232299809375e-05
7,781804629.4607,678272167,30.179550207625496,3.545370409346925e-05
8,781804641.4607,678271788,30.179674237830664,3.5455104334109506e-05
9,781804653.4607,678271409,30.179798003983393,3.545652371774628e-05
10,781804665.4607,678271030,30.17992150608767,3.545796224208069e-05
11,781804677.4607,678270651,30.180044743906166,3.5459287520209613e-05
12,781804689.4607,678270273,30.180167717201524,3.5460631934086916e-05
13,781804701.4607,678269894,30.180290425977656,3.5461995481536204e-05
14,781804713.4607,678269515,30.180412870238488,3.546337816035044e-05
15,782323113.4607,665248482,36.118192305189474,6.006895506485821e-06
16,782841513.4607,651648544,36.140740951034644,-6.030377444000092e-06
17,783359913.4607,638319171,36.046613225425446,-5.9868830185940134e-06
18,783878313.4607,628022723,35.83425227839736,-5.885784213707179e-06
19,784396713.4607,618534140,35.511939159448985,-5.734126144401577e-06
20,784915113.4607,609049957,35.09232051018736,-5.541327922939146e-06
21,785433513.4607,602628581,34.590631686325985,-5.317923999991141e-06
22,785951913.4607,598003069,34.023099597413406,-5.074413260249848e-06
23,786470313.4607,593054518,33.405640888035855,-4.82032288981395e-06
24,786988713.4607,590470637,32.75293042642058,-4.563646559556732e-06
25,787507113.4607,590286380,32.07784788942539,-4.310639804034653e-06
26,788025513.4607,589577829,31.39123938650067,-4.065909234276364e-06
27,788543913.4607,590098970,30.70193821635384,-3.832423489898113e-06
28,789062313.4607,593241603,30.016887674143117,-3.612158194717256e-06
29,789580713.4607,595952296,29.341396051410456,-3.406002222356732e-06
30,790099113.4607,598703383,28.67938810792967,-3.2141949274166792e-06
31,790617513.4607,603940667,28.033658635574806,-3.03649745029246e-06
32,791135913.4607,609141938,27.40609540144114,-2.8724410451123254e-06
33,791654313.4607,613425938,26.79533430293487,-2.720694237580461e-06
34,792172713.4607,619730020,26.207073289580393,-2.5816357348353915e-06
35,792691113.4607,626582100,25.639086737555928,-2.4532875680617344e-06
36,793209513.4607,631941831,25.091341618262593,-2.3348936537433104e-06
37,793727913.4607,638592800,24.56020465889183,-2.2157744085689634e-06
38,794246313.4607,646112559,22.53879527679808,-2.2606884018210087e-06
39,794764713.4607,651534807,22.032499852821083,-2.0403124935874234e-06
40,795283113.4607,657377565,21.54979831568225,-1.956029236680722e-06
41,795801513.4607,664849205,21.087379836817952,-1.8810021434973084e-06
42,796319913.4607,670893827,20.64608981674506,-1.812268756410646e-06
43,796838313.4607,676491694,20.224868949911556,-1.7491948525004712e-06
44,797356713.4607,683930352,19.822746088732664,-1.6912134159629046e-06
45,797875113.4607,690463227,19.438831018421336,-1.6378329953849781e-06
46,798393513.4607,695813157,19.0723090372217,-1.5886227865117733e-06
47,798911913.4607,702895635,18.722435859982358,-1.5432032281066747e-06
48,799430313.4607,709774563,18.38853270259563,-1.501238847702898e-06
49,799948713.4607,714966554,18.06998160203334,-1.4624330964783491e-06
50,800467113.4607,721478798,17.766220737001355,-1.426515366786123e-06
51,800985513.4607,728535748,17.476740377594723,-1.3932688254412268e-06
52,801503913.4607,733693763,17.20107891424085,-1.3624705123448117e-06
53,802022313.4607,739536675,16.93881717362292,-1.333939193223737e-06
54,802540713.4607,746575366,16.689575474655978,-1.3075036022449076e-06
55,803059113.4607,751816901,16.453012754994294,-1.2830112147754657e-06
56,803577513.4607,756999131,16.228824125096125,-1.2603296477613641e-06
57,804095913.4607,763807859,16.016736488091873,-1.239340554291307e-06
58,804614313.4607,769216145,15.816505288664217,-1.2199367456976218e-06
59,805132713.4607,773831085,15.627912194757764,-1.2020214608012712e-06
60,805651113.4607,780210054,15.45076300454297,-1.185507627647684e-06
61,806169513.4607,785814177,15.284885668142431,-1.1703146033103361e-06
62,806687913.4607,790011763,15.13007297046861,-1.1566064454418038e-06
63,807206313.4607,795803837,14.986297529368855,-1.143631375832024e-06
64,807724713.4607,801568168,14.853392534113226,-1.132016958724756e-06
65,808243113.4607,805524024,14.731256112322445,-1.1214862236358307e-06
66,808761513.4607,810639213,14.61980078732714,-1.1119955104555868e-06
67,809279913.4607,816462373,14.518951259295632,-1.1035076240254066e-06
68,809798313.4607,820352222,14.428641839361088,-1.0959879604675492e-06
69,810316713.4607,824777027,14.34881514694862,-1.0894013144917204e-06
70,810835113.4607,830507222,14.279423570229302,-1.083718741784386e-06
71,811353513.4607,834483089,14.220429019019837,-1.0789191125216959e-06
72,811871913.4607,838274670,14.171800884770791,-1.074985007394321e-06
73,812390313.4607,843738941,14.133514759936212,-1.071901650963543e-06
74,812908713.4607,847903851,14.105551859499833,-1.069657202623019e-06
75,813427113.4607,851178215,14.087898663660406,-1.0682429372865748e-06
76,813945513.4607,856214997,14.080546655869085,-1.0676532681158367e-06
77,814463913.4607,860605117,14.083492158785152,1.067885718980953e-06
78,814982313.4607,863520369,14.096736292224115,1.0689409074542723e-06
79,815500713.4607,868007193,14.120285087922968,1.0708226139271017e-06
80,816019113.4607,872583487,14.154149811116152,1.073538147648719e-06
81,816537513.4607,875320248,14.198347450483748,1.0770993321393752e-06
82,817055913.4607,879188913,14.252900799289318,1.0815228143493502e-06
83,817574313.4607,883846565,14.317837385319196,1.0868256484044491e-06
84,818092713.4607,886584085,14.393189736858607,1.0930239058362851e-06
85,818611113.4607,889826282,14.478998555325694,1.1001403933375042e-06
86,819129513.4607,894418814,14.575314368975292,1.1082050490142994e-06
87,819647913.4607,897304366,14.682197619983922,1.1172519688074214e-06
88,820166313.4607,899972769,14.799719236058458,1.127319161357123e-06
89,820684713.4607,904338352,14.92796174368635,1.1384492131901747e-06
90,821203113.4607,907461885,15.067020606848828,1.150689899666528e-06
91,821721513.4607,909664776,15.217005682366919,1.1640947241861458e-06
92,822239913.4607,913651650,15.37804277975911,1.1787234653029146e-06
93,822758313.4607,917030884,15.55027534620446,1.1946427845959668e-06
94,823276713.4607,918919492,15.733866326983346,1.211926991218724e-06
95,823795113.4607,922403395,15.929000301457801,1.2306592776335484e-06
96,824313513.4607,925984271,16.13588591850704,1.2509338664134518e-06
97,824831913.4607,927729495,16.354757880977232,1.2728569625216769e-06
98,825350313.4607,930626560,16.585877434188543,1.2965424555666912e-06
99,825868713.4607,934297827,16.829534299191216,1.3221134792245964e-06
100,826387113.4607,936057908,17.086051622951913,1.3497111171216383e-06
101,826905513.4607,938336608,17.355789723168563,1.3794954241590362e-06
102,827423913.4607,941945595,17.63914861992068,1.4116450978467386e-06
103,827942313.4607,943835518,17.93657058327087,1.446414811267692e-06
104,828460713.4607,945520074,18.2485393131245,1.4838614048848177e-06
105,828979113.4607,948889487,18.575605185583292,1.5244027742980066e-06
106,829497513.4607,950959175,18.918355131163118,1.5682637947644701e-06
107,830015913.4607,952122851,19.27744066434925,1.6157622261272362e-06
108,830534313.4607,955065151,19.653576457753942,1.6672560974693399e-06
109,831052713.4607,957289000,20.04754517964476,1.723150246065686e-06
110,831571113.4607,958031011,20.4602026058773,1.7839038339635237e-06
111,832089513.4607,960361113,20.89248296230309,1.8500400857929824e-06
112,832607913.4607,962635579,21.34540329713076,1.9221553582535183e-06
113,833126313.4607,963045199,21.820065143612382,2.000923893897903e-06
114,833644713.4607,964593605,22.31765628022798,2.0871115996819485e-06
115,834163113.4607,966732992,22.839453304444923,2.1815965543846766e-06
116,834681513.4607,966850784,23.38682010301838,2.2853843254051837e-06
117,835199913.4607,967463309,23.9612006988537,2.3996242074649255e-06
118,835718313.4607,969193186,24.564105565974597,2.525628324022886e-06
119,836236713.4607,968970120,25.197088523633038,2.6648916983726613e-06
120,836755113.4607,968488770,25.86170977991225,2.8191114148950846e-06
121,837273513.4607,969433860,26.559479059666657,2.9902022032112778e-06
122,837791913.4607,968688760,27.291770555433022,3.180303874340363e-06
123,838310313.4607,966905810,28.059698503659313,3.3917730648574023e-06
124,838828713.4607,966568362,28.863936245165288,3.6270627929662627e-06
125,839347113.4607,964935623,29.704403532212478,3.889067794727584e-06
126,839865513.4607,961520074,30.580193452105068,4.180117123551896e-06
127,840383913.4607,959248345,31.488662828591078,4.5025672613002855e-06
128,840902313.4607,956115089,32.42511008615051,4.857937352011299e-06
129,841420713.4607,950536563,33.38191085435488,5.246350560249192e-06
130,841939113.4607,945496318,34.34758732569841,5.665621713309551e-06
131,842457513.4607,939976259,35.30581052539455,6.1100653078245465e-06
132,842975913.4607,931498002,36.23452329136553,6.569127135238509e-06
133,843494313.4607,922753993,37.105523155918185,7.026137868147047e-06
134,844012713.4607,913861694,37.88499558271573,7.457797313268088e-06
135,844531113.4607,901828056,38.535529822215345,7.834985178343716e-06
136,845049513.4607,888802226,39.01992888167479,8.126149803818596e-06
137,845567913.4607,876103648,39.30653691127484,8.302614822060567e-06
138,846086313.4607,860723522,39.374897075666404,-8.345061624717094e-06
139,846604713.4607,844050032,39.219941406937274,-8.248595081419713e-06
140,847123113.4607,828473198,38.85309669445357,-8.024100039629937e-06
141,847641513.4607,811352309,38.299852816535676,-7.69519801684172e-06
142,848159913.4607,793000646,37.5948078400941,-7.292160816330761e-06
143,848678313.4607,776452554,36.77610533547576,-6.8447255492581e-06
144,849196713.4607,759680679,35.88938540161894,-6.118370399473046e-06
145,849715113.4607,740968154,38.82972805571828,-5.841994298031364e-06
146,850233513.4607,723048220,38.09570508622486,-5.611535649827178e-06
147,850751913.4607,706042020,37.28481931532875,-5.218928358581843e-06
148,851270313.4607,687875400,36.41915602214842,-4.825919927981042e-06
149,851788713.4607,671440848,35.52544041635026,-4.445733229356339e-06
150,852307113.4607,656804093,34.62485027449619,-4.0874536977984695e-06
151,852825513.4607,641123712,33.73304180044758,-3.756029493740316e-06
152,853343913.4607,626475096,32.86094125206811,-3.4533343415116964e-06
153,853862313.4607,614133436,32.01571334311728,-3.1792054814424073e-06
154,854380713.4607,601056251,31.20167799515774,-2.932257196503479e-06
155,854899113.4607,588129632,30.421084646213007,-2.7104550808104147e-06
156,855417513.4607,577661405,29.67472511410401,-2.5114918743129647e-06
157,855935913.4607,567000210,28.962399809051348,-2.3330243317484648e-06
158,856454313.4607,555672904,28.28325943145361,-2.1728133371333016e-06
159,856972713.4607,546598554,27.636047510679237,-2.0287896439503995e-06
160,857491113.4607,538026510,27.01927151883183,-1.8990803448517613e-06
161,858009513.4607,528224883,26.431321891537433,-1.7820148996772064e-06
162,858527913.4607,520137095,25.870552572255047,-1.6761175481898767e-06
163,859046313.4607,513257789,25.335334052886626,-1.580092340628232e-06
164,859564713.4607,504952040,24.824087173983926,-1.4928052045647996e-06
165,860083113.4607,497567629,24.33530360498638,-1.4132655408248432e-06
166,860601513.4607,491960121,23.867557189386112,-1.3406086663242849e-06
167,861119913.4607,485115801,23.419509091020277,-1.2740797884700387e-06
168,861638313.4607,478292844,22.98990873897064,-1.2130198949791117e-06
169,862156713.4607,473547298,22.577591777832076,-1.1568534336214548e-06
170,862675113.4607,468079292,22.181475856707035,-1.1050756945429063e-06
171,863193513.4607,461805252,21.80055640668989,-1.0572391070330354e-06
172,863711913.4607,457557694,21.433904300515973,-1.0129486544967316e-06
173,864230313.4607,453307809,21.080661412976664,-9.718605978947032e-07
174,864748713.4607,447661887,20.740033671579212,-9.336724985142201e-07
175,865267113.4607,443627946,20.41128546263928,-8.981154907300805e-07
176,865785513.4607,440366428,20.09373524063842,-8.64950240294646e-07
177,866303913.4607,435463433,19.78675142302953,-8.339635824034774e-07
178,866822313.4607,431465779,19.489748450227946,-8.049653667068492e-07
179,867340713.4607,428912010,19.202183081914146,-7.777856256244981e-07
180,867859113.4607,424844399,18.92355097235139,-7.522721071818873e-07
181,868377513.4607,420829769,18.65338353411413,-7.282881761519575e-07
182,868895913.4607,418680480,18.391245065661614,-7.057111427681801e-07
183,869414313.4607,415477342,18.13673001967055,-6.844311802772352e-07
184,869932713.4607,411507001,17.88946005802253,-6.643504484037978e-07
185,870451113.4607,409471604,17.649080824777172,-6.45379495433732e-07
186,870969513.4607,407080272,17.415260523343996,-6.274321456004125e-07
187,871487913.4607,403294568,17.187690753935115,-6.104303664862422e-07
188,872006313.4607,401137461,16.966084720077824,-5.943075946522251e-07
189,872524713.4607,399422544,16.75017389964559,-5.790038679965781e-07
190,873043113.4607,395990936,16.539706185074465,-5.644635815234493e-07
191,873561513.4607,393567799,16.334444819467116,-5.506353938259736e-07
192,874079913.4607,392324642,16.134167418300542,-5.37472126938649e-07
193,874598313.4607,389395423,15.938664994090235,-5.24930471752629e-07
194,875116713.4607,386675284,15.74774102679414,-5.129706355468175e-07
195,875635113.4607,385654202,15.561210608872644,-5.015560096026406e-07
196,876153513.4607,383319346,15.378899675728313,-4.906529203431668e-07
197,876671913.4607,380378756,15.200644296534582,-4.802306144232524e-07
198,877190313.4607,379321287,15.026289858916051,-4.702617222911249e-07
199,877708713.4607,377595976,14.85568970655229,-4.607223616628059e-07
200,878227113.4607,374587027,14.688703519411515,-4.51588240531026e-07
201,878745513.4607,373273016,14.525198083448945,-4.428317924000394e-07
202,879263913.4607,372086325,14.365049275352863,-4.3442954082758426e-07
203,879782313.4607,369195406,14.208140783540896,-4.2636342776095487e-07
204,880300713.4607,367484341,14.054362178916223,-4.186167163845491e-07
205,880819113.4607,366683562,13.903608297972726,-4.1117303680427726e-07
206,881337513.4607,364088654,13.755779082610466,-4.0401671790367403e-07
207,881855913.4607,361942932,13.610779402702954,-3.9713297937435554e-07
208,882374313.4607,361313243,13.468518832008552,-3.905079453653483e-07
209,882892713.4607,359150397,13.328911417080256,-3.841285899444344e-07
210,883411113.4607,356633532,13.191875468628428,-3.779826789897971e-07
211,883929513.4607,355935294,13.05733339007226,-3.7205879184631447e-07
212,884447913.4607,354272808,12.925211507417464,-3.6634663887496087e-07
213,884966313.4607,351524571,12.795439655379344,-3.608379017969156e-07
214,885484713.4607,350541865,12.667950012773314,-3.5552588134318116e-07
215,886003113.4607,349360720,12.542676091273355,-3.504004880040876e-07
216,886521513.4607,346565777,12.419554626768177,-3.4544827981981155e-07
217,887039913.4607,345148902,12.298527322935543,-3.4066019795618437e-07
218,887558313.4607,344339219,12.179539403465359,-3.3603039441821905e-07
219,888076713.4607,341692115,12.062538334528814,-3.315529734643505e-07
220,888595113.4607,339781583,11.94747362994591,-3.2722169335520294e-07
221,889113513.4607,339158728,11.834296911214278,-3.230303318617987e-07
222,889631913.4607,336829003,11.722961924555847,-3.189728754309191e-07
223,890150313.4607,334458765,11.6134245121427,-3.1504356964826107e-07
224,890668713.4607,333800159,11.50564257150139,-3.112369165524074e-07
225,891187113.4607,331899954,11.399576030593188,-3.075476771330964e-07
226,891705513.4607,329183417,11.295186852206704,-3.039709920661307e-07
227,892223913.4607,328275595,11.192439004572496,-3.0050291618016255e-07
228,892742313.4607,326830893,11.091298036432205,-2.9714141020917617e-07
229,893260713.4607,323939796,10.991729774124204,-2.938848494833479e-07
230,893779113.4607,322618177,10.893699879101156,-2.90726564752959e-07
231,894297513.4607,321559489,10.797176380863839,-2.8765839772372727e-07
232,894815913.4607,318695226,10.702130674894791,-2.8467688578720707e-07
233,895334313.4607,316869766,10.608535960740124,-2.8178035203561163e-07
234,895852713.4607,316045467,10.516366377628925,-2.789666498480594e-07
235,896371113.4607,313401729,10.425596956791047,-2.762332158311166e-07
236,896889513.4607,311067470,10.336203708360548,-2.735773821649799e-07
237,897407913.4607,310276365,10.248163665295545,-2.709965171302269e-07
238,897926313.4607,308000525,10.161454894124418,-2.684880601733407e-07
239,898444713.4607,305235741,10.076056502834644,-2.6604951828939725e-07
240,898963113.4607,304269515,9.991948673602334,-2.6367848652755367e-07
241,899481513.4607,302428149,9.909112732162255,-2.613728533062356e-07
242,899999913.4607,299383330,9.82753114404289,-2.5913156383492183e-07
243,900518313.4607,298062065,9.747186926654296,-2.569555017361845e-07
244,901036713.4607,296626841,9.668062197832787,-2.5484434673729465e-07
245,901555113.4607,293500578,9.590138476550717,-2.5279211450141907e-07
246,902073513.4607,291700467,9.513399425626973,-2.5079413009000126e-07
247,902591913.4607,290558171,9.437834936351244,-2.4883310751632866e-07
248,903110313.4607,287558494,9.363424334330107,-2.4695539820780923e-07
249,903628713.4607,285231548,9.290158534118497,-2.4511454530631896e-07
250,904147113.4607,284209260,9.21802521426561,-2.433243911685352e-07
251,904665513.4607,281510263,9.147012452838034,-2.4158357523010324e-07
252,905183913.4607,278694059,9.077108847061023,-2.3989068160876443e-07
253,905702313.4607,277593650,9.00830355128829,-2.3824426822316363e-07
254,906220713.4607,275298698,8.940586322472523,-2.3664286286158904e-07
255,906739113.4607,272115265,8.873947602967789,-2.3508501376722313e-07
256,907257513.4607,270744708,8.808378647646563,-2.3356962483032536e-07
257,907775913.4607,268868774,8.74387151062452,-2.3209697827752864e-07
258,908294313.4607,265503758,8.68041821412892,-2.3066907553028637e-07
259,908812713.4607,263706842,8.618009283910778,-2.2928477872442098e-07
260,909331113.4607,262180785,8.556634895342182,-2.279380417116594e-07
261,909849513.4607,258845128,8.496287421165103,-2.266257305097736e-07
262,910367913.4607,256531097,8.436960981234817,-2.2534795987942952e-07
263,910886313.4607,255217228,8.378650217230117,-2.2410487803030013e-07
264,911404713.4607,252102955,8.321349958554228,-2.2289605314700158e-07
265,911923113.4607,249266701,8.265055272262712,-2.217207467508076e-07
266,912441513.4607,247982942,8.20976154252322,-2.2057811177870967e-07
267,912959913.4607,245226039,8.155464521232846,-2.1946726669161071e-07
268,913478313.4607,241954817,8.102160365681984,-2.1838730742918951e-07
269,913996713.4607,240502395,8.04984569181238,-2.1733730778033878e-07
270,914515113.4607,238162607,7.998517678231425,-2.1631641259197748e-07
271,915033513.4607,234618978,7.948174218606051,-2.1532435731131907e-07
272,915551913.4607,232814759,7.898813823760524,-2.1436269510731516e-07
273,916070313.4607,230871222,7.850434453367163,-2.1343397952837778e-07
274,916588713.4607,227256898,7.803032216025898,-2.1253587179325178e-07
275,917107113.4607,224971479,7.756603255785028,-2.1166311678382058e-07
276,917625513.4607,223327023,7.71114574380472,-2.1081449009767044e-07
277,918143913.4607,219842669,7.666659015618102,-2.0999086611008435e-07
278,918662313.4607,217028983,7.623142594263781,-2.091927892072973e-07
279,919180713.4607,215523991,7.580595970441408,-2.0842029905124865e-07
280,919699113.4607,212333227,7.539018636824381,-2.0767318673878925e-07
281,920217513.4607,209038300,7.498410137920318,-2.0695113813159312e-07
282,920735913.4607,207475013,7.4587701021187645,-2.0625377836030672e-07
